#m=1, g=1, tau=10^linspace(-3,1,401), M=16, N=1, alpha=3, t = 10^linspace(-6, 2, 1001), b=10, t0=0.01
#tau white_noise eff_mass Markovian_emb
1.000000e-03 7.349017e-04 9.371955e-06 7.597708e-06
1.023293e-03 7.519994e-04 9.770208e-06 7.914492e-06
1.047129e-03 7.694944e-04 1.018526e-05 8.244341e-06
1.071519e-03 7.873959e-04 1.061792e-05 8.587705e-06
1.096478e-03 8.057134e-04 1.106874e-05 8.945124e-06
1.122018e-03 8.244564e-04 1.153849e-05 9.317416e-06
1.148154e-03 8.436349e-04 1.202793e-05 9.705013e-06
1.174898e-03 8.632589e-04 1.253804e-05 1.010845e-05
1.202264e-03 8.833387e-04 1.306953e-05 1.052839e-05
1.230269e-03 9.038849e-04 1.362328e-05 1.096564e-05
1.258925e-03 9.249084e-04 1.420021e-05 1.142072e-05
1.288250e-03 9.464201e-04 1.480153e-05 1.189435e-05
1.318257e-03 9.684314e-04 1.542812e-05 1.238751e-05
1.348963e-03 9.909538e-04 1.608091e-05 1.290097e-05
1.380384e-03 1.013999e-03 1.676098e-05 1.343531e-05
1.412538e-03 1.037580e-03 1.746956e-05 1.399137e-05
1.445440e-03 1.061707e-03 1.820784e-05 1.457028e-05
1.479108e-03 1.086395e-03 1.897693e-05 1.517270e-05
1.513561e-03 1.111657e-03 1.977809e-05 1.579954e-05
1.548817e-03 1.137504e-03 2.061282e-05 1.645211e-05
1.584893e-03 1.163951e-03 2.148297e-05 1.713154e-05
1.621810e-03 1.191012e-03 2.238938e-05 1.783869e-05
1.659587e-03 1.218701e-03 2.333353e-05 1.857447e-05
1.698244e-03 1.247033e-03 2.431703e-05 1.934036e-05
1.737801e-03 1.276022e-03 2.534173e-05 2.013720e-05
1.778279e-03 1.305683e-03 2.640904e-05 2.096620e-05
1.819701e-03 1.336033e-03 2.752070e-05 2.182922e-05
1.862087e-03 1.367086e-03 2.867857e-05 2.272738e-05
1.905461e-03 1.398860e-03 2.988529e-05 2.366172e-05
1.949845e-03 1.431370e-03 3.114209e-05 2.463381e-05
1.995262e-03 1.464634e-03 3.245102e-05 2.564539e-05
2.041738e-03 1.498670e-03 3.381422e-05 2.669762e-05
2.089296e-03 1.533495e-03 3.523439e-05 2.779208e-05
2.137962e-03 1.569126e-03 3.671337e-05 2.893164e-05
2.187762e-03 1.605584e-03 3.825355e-05 3.011700e-05
2.238721e-03 1.642887e-03 3.985746e-05 3.134984e-05
2.290868e-03 1.681054e-03 4.152886e-05 3.263249e-05
2.344229e-03 1.720105e-03 4.326935e-05 3.396672e-05
2.398833e-03 1.760061e-03 4.508173e-05 3.535424e-05
2.454709e-03 1.800943e-03 4.696896e-05 3.679796e-05
2.511886e-03 1.842772e-03 4.893474e-05 3.830064e-05
2.570396e-03 1.885569e-03 5.098158e-05 3.986324e-05
2.630268e-03 1.929357e-03 5.311276e-05 4.148823e-05
2.691535e-03 1.974159e-03 5.533195e-05 4.317878e-05
2.754229e-03 2.019999e-03 5.764402e-05 4.493656e-05
2.818383e-03 2.066899e-03 6.005142e-05 4.676414e-05
2.884032e-03 2.114885e-03 6.255809e-05 4.866661e-05
2.951209e-03 2.163981e-03 6.516807e-05 5.064466e-05
3.019952e-03 2.214213e-03 6.788607e-05 5.270109e-05
3.090295e-03 2.265607e-03 7.071567e-05 5.484008e-05
3.162278e-03 2.318189e-03 7.366137e-05 5.706394e-05
3.235937e-03 2.371988e-03 7.672896e-05 5.937564e-05
3.311311e-03 2.427031e-03 7.992377e-05 6.178087e-05
3.388442e-03 2.483346e-03 8.324950e-05 6.428206e-05
3.467369e-03 2.540977e-03 8.671139e-05 6.688181e-05
3.548134e-03 2.599949e-03 9.031592e-05 6.958506e-05
3.630781e-03 2.660284e-03 9.406842e-05 7.239641e-05
3.715352e-03 2.722014e-03 9.797428e-05 7.531893e-05
3.801894e-03 2.785171e-03 1.020396e-04 7.835872e-05
3.890451e-03 2.849787e-03 1.062742e-04 8.151989e-05
3.981072e-03 2.915897e-03 1.106820e-04 8.480501e-05
4.073803e-03 2.983533e-03 1.152696e-04 8.822019e-05
4.168694e-03 3.052732e-03 1.200445e-04 9.177022e-05
4.265795e-03 3.123529e-03 1.250157e-04 9.545895e-05
4.365158e-03 3.195961e-03 1.301892e-04 9.929506e-05
4.466836e-03 3.270064e-03 1.355731e-04 1.032836e-04
4.570882e-03 3.345878e-03 1.411783e-04 1.074276e-04
4.677351e-03 3.423441e-03 1.470141e-04 1.117349e-04
4.786301e-03 3.502794e-03 1.530885e-04 1.162112e-04
4.897788e-03 3.583977e-03 1.594104e-04 1.208613e-04
5.011872e-03 3.667032e-03 1.659914e-04 1.256973e-04
5.128614e-03 3.752002e-03 1.728398e-04 1.307241e-04
5.248075e-03 3.838930e-03 1.799657e-04 1.359467e-04
5.370318e-03 3.927861e-03 1.873815e-04 1.413751e-04
5.495409e-03 4.018841e-03 1.951036e-04 1.470143e-04
5.623413e-03 4.111917e-03 2.031381e-04 1.528710e-04
5.754399e-03 4.207136e-03 2.114974e-04 1.589638e-04
5.888437e-03 4.304546e-03 2.201971e-04 1.652920e-04
6.025596e-03 4.404199e-03 2.292497e-04 1.718644e-04
6.165950e-03 4.506144e-03 2.386676e-04 1.786949e-04
6.309573e-03 4.610435e-03 2.484655e-04 1.857875e-04
6.456542e-03 4.717124e-03 2.586684e-04 1.931564e-04
6.606934e-03 4.826265e-03 2.692822e-04 2.008175e-04
6.760830e-03 4.937915e-03 2.803232e-04 2.087716e-04
6.918310e-03 5.052129e-03 2.918114e-04 2.170340e-04
7.079458e-03 5.168968e-03 3.037644e-04 2.256188e-04
7.244360e-03 5.288489e-03 3.161975e-04 2.345342e-04
7.413102e-03 5.410753e-03 3.291298e-04 2.438043e-04
7.585776e-03 5.535823e-03 3.425954e-04 2.534312e-04
7.762471e-03 5.663762e-03 3.566041e-04 2.634249e-04
7.943282e-03 5.794634e-03 3.711743e-04 2.738078e-04
8.128305e-03 5.928507e-03 3.863328e-04 2.845841e-04
8.317638e-03 6.065464e-03 4.021018e-04 2.957780e-04
8.511380e-03 6.205595e-03 4.185014e-04 3.074103e-04
8.709636e-03 6.348936e-03 4.355587e-04 3.194819e-04
8.912509e-03 6.495561e-03 4.533155e-04 3.320191e-04
9.120108e-03 6.645544e-03 4.717813e-04 3.450320e-04
9.332543e-03 6.798959e-03 4.909837e-04 3.585376e-04
9.549926e-03 6.955884e-03 5.109601e-04 3.725837e-04
9.772372e-03 7.116398e-03 5.317359e-04 3.871586e-04
1.000000e-02 7.280582e-03 5.533386e-04 4.022889e-04
1.023293e-02 7.448518e-03 5.758093e-04 4.179944e-04
1.047129e-02 7.620289e-03 5.991932e-04 4.342862e-04
1.071519e-02 7.795983e-03 6.235065e-04 4.512251e-04
1.096478e-02 7.975686e-03 6.487851e-04 4.687982e-04
1.122018e-02 8.159489e-03 6.750827e-04 4.870340e-04
1.148154e-02 8.347483e-03 7.024238e-04 5.059619e-04
1.174898e-02 8.539761e-03 7.308480e-04 5.255912e-04
1.202264e-02 8.736419e-03 7.604365e-04 5.459937e-04
1.230269e-02 8.937556e-03 7.912128e-04 5.671590e-04
1.258925e-02 9.143269e-03 8.232073e-04 5.891360e-04
1.288250e-02 9.353662e-03 8.564738e-04 6.119459e-04
1.318257e-02 9.568838e-03 8.910712e-04 6.355955e-04
1.348963e-02 9.788903e-03 9.270350e-04 6.601764e-04
1.380384e-02 1.001397e-02 9.644183e-04 6.856695e-04
1.412538e-02 1.024414e-02 1.003329e-03 7.121140e-04
1.445440e-02 1.047973e-02 1.043774e-03 7.395495e-04
1.479108e-02 1.072074e-02 1.085813e-03 7.679867e-04
1.513561e-02 1.096722e-02 1.129530e-03 7.975509e-04
1.548817e-02 1.121929e-02 1.174974e-03 8.281930e-04
1.584893e-02 1.147708e-02 1.222205e-03 8.599788e-04
1.621810e-02 1.174071e-02 1.271327e-03 8.929547e-04
1.659587e-02 1.201032e-02 1.322416e-03 9.271510e-04
1.698244e-02 1.228603e-02 1.375510e-03 9.626760e-04
1.737801e-02 1.256797e-02 1.430697e-03 9.994850e-04
1.778279e-02 1.285629e-02 1.488079e-03 1.037676e-03
1.819701e-02 1.315113e-02 1.547723e-03 1.077251e-03
1.862087e-02 1.345262e-02 1.609709e-03 1.118321e-03
1.905461e-02 1.376092e-02 1.674214e-03 1.160936e-03
1.949845e-02 1.407617e-02 1.741242e-03 1.205093e-03
1.995262e-02 1.439852e-02 1.810890e-03 1.250891e-03
2.041738e-02 1.472813e-02 1.883309e-03 1.298348e-03
2.089296e-02 1.506516e-02 1.958562e-03 1.347694e-03
2.137962e-02 1.540985e-02 2.036750e-03 1.398810e-03
2.187762e-02 1.576246e-02 2.118079e-03 1.451808e-03
2.238721e-02 1.612301e-02 2.202619e-03 1.506718e-03
2.290868e-02 1.649165e-02 2.290451e-03 1.563662e-03
2.344229e-02 1.686856e-02 2.381745e-03 1.622751e-03
2.398833e-02 1.725393e-02 2.476625e-03 1.683946e-03
2.454709e-02 1.764793e-02 2.575192e-03 1.747392e-03
2.511886e-02 1.805075e-02 2.677662e-03 1.813061e-03
2.570396e-02 1.846259e-02 2.784218e-03 1.881343e-03
2.630268e-02 1.888363e-02 2.894911e-03 1.952024e-03
2.691535e-02 1.931407e-02 3.009956e-03 2.025300e-03
2.754229e-02 1.975412e-02 3.129579e-03 2.101148e-03
2.818383e-02 2.020398e-02 3.253841e-03 2.179866e-03
2.884032e-02 2.066385e-02 3.382963e-03 2.261426e-03
2.951209e-02 2.113426e-02 3.517280e-03 2.345908e-03
3.019952e-02 2.161572e-02 3.656802e-03 2.433387e-03
3.090295e-02 2.210791e-02 3.801739e-03 2.524057e-03
3.162278e-02 2.261105e-02 3.952405e-03 2.618135e-03
3.235937e-02 2.312539e-02 4.108898e-03 2.715603e-03
3.311311e-02 2.365114e-02 4.271447e-03 2.816557e-03
3.388442e-02 2.418857e-02 4.440583e-03 2.921096e-03
3.467369e-02 2.473790e-02 4.616255e-03 3.029586e-03
3.548134e-02 2.529940e-02 4.798708e-03 3.141817e-03
3.630781e-02 2.587332e-02 4.988380e-03 3.258070e-03
3.715352e-02 2.645992e-02 5.185374e-03 3.378368e-03
3.801894e-02 2.705947e-02 5.389960e-03 3.503246e-03
3.890451e-02 2.767261e-02 5.602817e-03 3.632417e-03
3.981072e-02 2.829958e-02 5.823916e-03 3.766256e-03
4.073803e-02 2.894036e-02 6.053575e-03 3.904720e-03
4.168694e-02 2.959525e-02 6.292319e-03 4.048439e-03
4.265795e-02 3.026453e-02 6.540288e-03 4.197024e-03
4.365158e-02 3.094851e-02 6.797799e-03 4.350845e-03
4.466836e-02 3.164748e-02 7.065690e-03 4.510021e-03
4.570882e-02 3.236176e-02 7.343983e-03 4.675124e-03
4.677351e-02 3.309166e-02 7.632984e-03 4.845821e-03
4.786301e-02 3.383750e-02 7.933363e-03 5.022654e-03
4.897788e-02 3.460019e-02 8.245352e-03 5.205853e-03
5.011872e-02 3.538096e-02 8.569332e-03 5.395646e-03
5.128614e-02 3.617879e-02 8.906358e-03 5.591949e-03
5.248075e-02 3.699402e-02 9.256488e-03 5.794821e-03
5.370318e-02 3.782702e-02 9.620079e-03 6.005258e-03
5.495409e-02 3.867814e-02 9.997983e-03 6.222836e-03
5.623413e-02 3.954775e-02 1.039049e-02 6.448024e-03
5.754399e-02 4.043621e-02 1.079808e-02 6.680555e-03
5.888437e-02 4.134392e-02 1.122211e-02 6.922333e-03
6.025596e-02 4.227150e-02 1.166263e-02 7.171873e-03
6.165950e-02 4.322028e-02 1.212009e-02 7.430005e-03
6.309573e-02 4.418957e-02 1.259561e-02 7.696983e-03
6.456542e-02 4.517977e-02 1.308975e-02 7.973607e-03
6.606934e-02 4.619129e-02 1.360290e-02 8.259451e-03
6.760830e-02 4.722455e-02 1.413681e-02 8.554507e-03
6.918310e-02 4.827999e-02 1.469153e-02 8.861049e-03
7.079458e-02 4.935802e-02 1.526760e-02 9.177777e-03
7.244360e-02 5.045910e-02 1.586644e-02 9.505472e-03
7.413102e-02 5.158736e-02 1.648848e-02 9.843960e-03
7.585776e-02 5.273999e-02 1.713447e-02 1.019486e-02
7.762471e-02 5.391726e-02 1.780672e-02 1.055720e-02
7.943282e-02 5.511967e-02 1.850520e-02 1.093098e-02
8.128305e-02 5.634770e-02 1.923063e-02 1.131904e-02
8.317638e-02 5.760183e-02 1.998485e-02 1.171961e-02
8.511380e-02 5.888257e-02 2.076835e-02 1.213381e-02
8.709636e-02 6.019151e-02 2.158211e-02 1.256196e-02
8.912509e-02 6.152961e-02 2.242911e-02 1.300510e-02
9.120108e-02 6.289602e-02 2.330928e-02 1.346278e-02
9.332543e-02 6.429126e-02 2.422353e-02 1.393444e-02
9.549926e-02 6.571587e-02 2.517422e-02 1.442456e-02
9.772372e-02 6.717041e-02 2.616199e-02 1.492963e-02
1.000000e-01 6.865542e-02 2.718810e-02 1.545169e-02
1.023293e-01 7.017473e-02 2.825629e-02 1.599313e-02
1.047129e-01 7.172919e-02 2.936660e-02 1.655158e-02
1.071519e-01 7.331623e-02 3.052015e-02 1.712855e-02
1.096478e-01 7.493646e-02 3.171987e-02 1.772468e-02
1.122018e-01 7.659047e-02 3.296678e-02 1.834118e-02
1.148154e-01 7.827889e-02 3.426238e-02 1.897769e-02
1.174898e-01 8.000255e-02 3.561122e-02 1.963405e-02
1.202264e-01 8.176582e-02 3.701394e-02 2.031551e-02
1.230269e-01 8.356560e-02 3.847178e-02 2.101786e-02
1.258925e-01 8.540255e-02 3.998830e-02 2.174054e-02
1.288250e-01 8.727732e-02 4.156519e-02 2.249245e-02
1.318257e-01 8.919057e-02 4.320419e-02 2.326614e-02
1.348963e-01 9.114331e-02 4.491036e-02 2.406310e-02
1.380384e-01 9.314598e-02 4.668613e-02 2.489014e-02
1.412538e-01 9.518976e-02 4.853224e-02 2.574430e-02
1.445440e-01 9.727536e-02 5.045267e-02 2.662522e-02
1.479108e-01 9.940348e-02 5.245100e-02 2.753717e-02
1.513561e-01 1.015748e-01 5.452890e-02 2.847760e-02
1.548817e-01 1.037925e-01 5.669108e-02 2.944841e-02
1.584893e-01 1.060591e-01 5.894434e-02 3.045108e-02
1.621810e-01 1.083715e-01 6.128798e-02 3.148654e-02
1.659587e-01 1.107304e-01 6.372582e-02 3.255659e-02
1.698244e-01 1.131366e-01 6.626520e-02 3.366037e-02
1.737801e-01 1.155912e-01 6.890712e-02 3.480240e-02
1.778279e-01 1.181099e-01 7.165593e-02 3.597995e-02
1.819701e-01 1.206791e-01 7.452170e-02 3.719301e-02
1.862087e-01 1.232996e-01 7.750642e-02 3.845008e-02
1.905461e-01 1.259721e-01 8.061300e-02 3.974495e-02
1.949845e-01 1.286975e-01 8.384814e-02 4.108162e-02
1.995262e-01 1.314855e-01 8.721907e-02 4.246981e-02
2.041738e-01 1.343289e-01 9.072883e-02 4.389883e-02
2.089296e-01 1.372282e-01 9.438356e-02 4.536876e-02
2.137962e-01 1.401840e-01 9.819791e-02 4.689631e-02
2.187762e-01 1.432002e-01 1.021733e-01 4.846753e-02
2.238721e-01 1.462943e-01 1.063149e-01 5.008360e-02
2.290868e-01 1.494488e-01 1.106311e-01 5.176718e-02
2.344229e-01 1.526645e-01 1.151333e-01 5.349794e-02
2.398833e-01 1.559422e-01 1.198258e-01 5.527608e-02
2.454709e-01 1.592897e-01 1.247173e-01 5.712716e-02
2.511886e-01 1.627076e-01 1.298212e-01 5.902877e-02
2.570396e-01 1.661909e-01 1.351514e-01 6.098516e-02
2.630268e-01 1.697402e-01 1.407106e-01 6.302992e-02
2.691535e-01 1.733602e-01 1.465097e-01 6.513027e-02
2.754229e-01 1.770756e-01 1.525613e-01 6.728668e-02
2.818383e-01 1.808614e-01 1.588818e-01 6.953365e-02
2.884032e-01 1.847184e-01 1.654787e-01 7.184105e-02
2.951209e-01 1.886474e-01 1.723656e-01 7.421605e-02
3.019952e-01 1.926654e-01 1.795566e-01 7.669091e-02
3.090295e-01 1.967600e-01 1.870744e-01 7.923044e-02
3.162278e-01 2.009302e-01 1.949343e-01 8.183524e-02
3.235937e-01 2.051766e-01 2.031468e-01 8.455864e-02
3.311311e-01 2.095343e-01 2.117297e-01 8.736543e-02
3.388442e-01 2.139795e-01 2.207017e-01 9.024496e-02
3.467369e-01 2.185058e-01 2.300829e-01 9.324289e-02
3.548134e-01 2.231138e-01 2.399081e-01 9.632225e-02
3.630781e-01 2.278258e-01 2.501922e-01 9.949045e-02
3.715352e-01 2.326249e-01 2.609547e-01 1.027856e-01
3.801894e-01 2.375093e-01 2.722207e-01 1.061620e-01
3.890451e-01 2.424852e-01 2.840172e-01 1.096488e-01
3.981072e-01 2.475976e-01 2.963728e-01 1.132892e-01
4.073803e-01 2.528005e-01 3.093178e-01 1.170195e-01
4.168694e-01 2.580945e-01 3.228843e-01 1.208474e-01
4.265795e-01 2.634933e-01 3.371065e-01 1.248404e-01
4.365158e-01 2.690033e-01 3.520209e-01 1.289285e-01
4.466836e-01 2.746079e-01 3.676659e-01 1.331183e-01
4.570882e-01 2.803077e-01 3.840948e-01 1.375247e-01
4.677351e-01 2.861639e-01 4.013438e-01 1.420357e-01
4.786301e-01 2.921295e-01 4.194564e-01 1.466581e-01
4.897788e-01 2.981956e-01 4.384821e-01 1.514735e-01
5.011872e-01 3.043782e-01 4.584729e-01 1.563985e-01
5.128614e-01 3.106871e-01 4.794845e-01 1.614696e-01
5.248075e-01 3.170998e-01 5.015752e-01 1.667727e-01
5.370318e-01 3.236191e-01 5.248145e-01 1.721924e-01
5.495409e-01 3.303296e-01 5.493393e-01 1.777778e-01
5.623413e-01 3.371495e-01 5.751533e-01 1.835398e-01
5.754399e-01 3.440788e-01 6.023297e-01 1.894428e-01
5.888437e-01 3.511546e-01 6.310351e-01 1.956096e-01
6.025596e-01 3.583552e-01 6.612914e-01 2.019326e-01
6.165950e-01 3.656681e-01 6.932191e-01 2.084480e-01
6.309573e-01 3.731520e-01 7.269372e-01 2.151224e-01
6.456542e-01 3.808035e-01 7.626563e-01 2.220108e-01
6.606934e-01 3.885729e-01 8.004089e-01 2.291829e-01
6.760830e-01 3.964842e-01 8.403502e-01 2.364969e-01
6.918310e-01 4.045514e-01 8.827512e-01 2.441095e-01
7.079458e-01 4.127390e-01 9.277268e-01 2.519888e-01
7.244360e-01 4.210906e-01 9.756759e-01 2.603139e-01
7.413102e-01 4.296553e-01 1.026689e+00 2.689259e-01
7.585776e-01 4.383456e-01 1.081099e+00 2.778184e-01
7.762471e-01 4.471851e-01 1.139263e+00 2.870231e-01
7.943282e-01 4.562008e-01 1.201654e+00 2.965398e-01
8.128305e-01 4.653440e-01 1.268758e+00 3.070391e-01
8.317638e-01 4.746746e-01 1.341214e+00 3.166971e-01
8.511380e-01 4.842366e-01 1.419857e+00 3.272445e-01
8.709636e-01 4.939311e-01 1.505613e+00 3.381065e-01
8.912509e-01 5.037999e-01 1.599853e+00 3.496328e-01
9.120108e-01 5.138478e-01 1.704389e+00 3.613487e-01
9.332543e-01 5.240290e-01 1.822039e+00 3.734026e-01
9.549926e-01 5.344659e-01 1.957185e+00 3.859100e-01
9.772372e-01 5.451105e-01 2.118953e+00 3.991002e-01
1.000000e+00 5.558932e-01 1.348332e+00 4.124710e-01
1.023293e+00 5.669013e-01 1.335242e+03 4.263665e-01
1.047129e+00 5.780651e-01 3.202219e+03 4.406574e-01
1.071519e+00 5.893866e-01 1.210537e+03 4.555293e-01
1.096478e+00 6.010549e-01 1.406298e+03 4.709357e-01
1.122018e+00 6.128671e-01 1.243130e+03 4.867327e-01
1.148154e+00 6.249695e-01 2.292077e+03 5.030403e-01
1.174898e+00 6.375193e-01 1.619396e+03 5.202185e-01
1.202264e+00 6.503225e-01 7.402641e+03 5.376584e-01
1.230269e+00 6.636147e-01 3.947372e+03 5.553687e-01
1.258925e+00 6.772113e-01 1.265749e+03 5.744216e-01
1.288250e+00 6.911186e-01 1.517887e+03 5.937168e-01
1.318257e+00 7.053958e-01 1.275435e+03 6.134995e-01
1.348963e+00 7.199103e-01 1.213462e+03 6.337906e-01
1.380384e+00 7.348459e-01 1.244324e+03 6.553850e-01
1.412538e+00 7.502569e-01 1.379769e+03 6.772040e-01
1.445440e+00 7.659399e-01 2.057330e+03 6.998953e-01
1.479108e+00 7.820211e-01 1.742925e+03 7.229615e-01
1.513561e+00 7.984278e-01 1.257370e+03 7.471663e-01
1.548817e+00 8.152396e-01 1.359959e+03 7.720622e-01
1.584893e+00 8.325629e-01 1.222303e+03 7.969522e-01
1.621810e+00 8.501788e-01 8.718146e+03 8.246962e-01
1.659587e+00 8.682223e-01 1.400411e+03 8.509663e-01
1.698244e+00 8.866698e-01 1.448618e+03 9.000902e-01
1.737801e+00 9.055337e-01 1.272759e+03 9.109213e-01
1.778279e+00 9.249691e-01 1.830482e+03 9.331799e-01
1.819701e+00 9.447098e-01 4.826276e+03 9.605795e-01
1.862087e+00 9.649161e-01 1.398436e+03 9.911361e-01
1.905461e+00 9.855559e-01 1.296593e+03 1.021207e+00
1.949845e+00 1.006752e+00 4.760243e+03 1.052416e+00
1.995262e+00 1.028576e+00 1.215661e+03 1.083985e+00
2.041738e+00 1.050764e+00 2.166850e+04 1.117537e+00
2.089296e+00 1.073472e+00 1.268045e+03 1.152677e+00
2.137962e+00 1.096576e+00 1.331219e+03 1.187858e+00
2.187762e+00 1.120403e+00 1.658909e+03 1.224412e+00
2.238721e+00 1.144749e+00 1.206493e+03 1.262591e+00
2.290868e+00 1.170520e+00 1.286731e+03 1.301872e+00
2.344229e+00 1.194737e+00 1.768875e+03 1.342773e+00
2.398833e+00 1.220541e+00 2.450303e+04 1.383782e+00
2.454709e+00 1.247209e+00 2.196096e+03 1.428300e+00
2.511886e+00 1.274313e+00 1.612134e+03 1.473291e+00
2.570396e+00 1.302198e+00 1.447741e+03 1.519054e+00
2.630268e+00 1.330512e+00 1.390946e+03 1.568180e+00
2.691535e+00 1.359271e+00 1.386583e+03 1.617919e+00
2.754229e+00 1.389150e+00 1.428765e+03 1.668689e+00
2.818383e+00 1.419422e+00 1.546225e+03 1.720230e+00
2.884032e+00 1.450327e+00 1.866560e+03 1.776441e+00
2.951209e+00 1.481515e+00 3.507165e+03 1.832378e+00
3.019952e+00 1.513936e+00 3.486450e+03 1.887462e+00
3.090295e+00 1.547300e+00 1.616055e+03 1.948151e+00
3.162278e+00 1.581074e+00 1.290409e+03 2.009542e+00
3.235937e+00 1.615454e+00 1.204005e+03 2.072422e+00
3.311311e+00 1.650669e+00 1.282747e+03 2.133559e+00
3.388442e+00 1.686683e+00 3.130462e+03 2.203406e+00
3.467369e+00 1.723703e+00 1.354043e+03 2.271614e+00
3.548134e+00 1.762088e+00 1.212717e+03 2.340758e+00
3.630781e+00 1.800742e+00 1.429139e+03 2.411799e+00
3.715352e+00 1.840614e+00 2.094128e+05 2.490115e+00
3.801894e+00 1.881055e+00 1.376804e+03 2.566069e+00
3.890451e+00 1.922474e+00 1.206711e+03 2.642699e+00
3.981072e+00 1.965078e+00 2.113685e+03 2.726003e+00
4.073803e+00 2.008894e+00 1.264459e+03 2.810889e+00
4.168694e+00 2.053473e+00 1.295254e+03 2.896853e+00
4.265795e+00 2.098712e+00 8.455784e+03 2.980724e+00
4.365158e+00 2.145275e+00 1.302377e+03 3.079863e+00
4.466836e+00 2.192228e+00 1.273180e+03 3.171790e+00
4.570882e+00 2.241953e+00 1.552665e+03 3.262584e+00
4.677351e+00 2.291555e+00 1.238940e+03 3.372061e+00
4.786301e+00 2.342336e+00 4.103241e+03 3.472706e+00
4.897788e+00 2.394526e+00 1.279475e+03 3.574382e+00
5.011872e+00 2.447432e+00 1.379294e+03 3.690404e+00
5.128614e+00 2.502525e+00 1.279465e+03 3.804038e+00
5.248075e+00 2.557984e+00 1.404847e+03 3.911237e+00
5.370318e+00 2.617365e+00 1.797421e+03 4.043143e+00
5.495409e+00 2.674445e+00 1.212236e+03 4.176467e+00
5.623413e+00 2.733867e+00 1.683874e+03 4.271746e+00
5.754399e+00 2.788040e+00 1.272712e+03 4.424572e+00
5.888437e+00 2.858057e+00 2.782694e+03 4.623440e+00
6.025596e+00 2.924175e+00 1.203543e+03 4.602011e+00
6.165950e+00 2.978755e+00 1.890819e+03 4.845437e+00
6.309573e+00 3.043143e+00 1.276148e+03 5.178658e+00
